 #Conducti output file:
 #Contains all results produced by conducti utility
 
 # omega(ua)       cond(ua)             thermal cond(ua)       thermopower(ua)
     0.00000    5.442193167316E-01    4.160112437708E-09    2.193508627979E-06
     0.00501    5.434062654080E-01    4.318019477203E-09    2.193504051017E-06
     0.01001    5.409613058947E-01    4.808638577182E-09    2.193489907401E-06
     0.01502    5.368677805087E-01    5.684299763309E-09    2.193464901701E-06
     0.02002    5.311010278066E-01    7.037644151375E-09    2.193426680610E-06
     0.02503    5.236327695685E-01    9.010089300021E-09    2.193371516017E-06
     0.03003    5.144367448747E-01    1.180433123130E-08    2.193293806764E-06
     0.03504    5.034951326516E-01    1.570151800515E-08    2.193185336021E-06
     0.04004    4.908052385671E-01    2.108388272293E-08    2.193034189769E-06
     0.04505    4.763858981883E-01    2.846374521399E-08    2.192823198199E-06
     0.05005    4.602830674570E-01    3.851986356028E-08    2.192527700218E-06
     0.05506    4.425741318000E-01    5.214211558002E-08    2.192112343842E-06
     0.06006    4.233705612256E-01    7.048538756885E-08    2.191526510863E-06
     0.06507    4.028186623329E-01    9.503330950890E-08    2.190697776720E-06
     0.07007    3.810983188956E-01    1.276720663926E-07    2.189522563355E-06
     0.07508    3.584197589868E-01    1.707738981733E-07    2.187852781314E-06
     0.08008    3.350185267087E-01    2.272890442754E-07    2.185476741293E-06
     0.08509    3.111489595364E-01    3.008437698265E-07    2.182091878549E-06
     0.09009    2.870765689497E-01    3.958407217962E-07    2.177265782300E-06
     0.09510    2.630697857932E-01    5.175562159185E-07    2.170380522883E-06
     0.10010    2.393915591191E-01    6.722271850598E-07    2.160553133064E-06
     0.10511    2.162912877844E-01    8.671184858977E-07    2.146522059820E-06
     0.11011    1.939975205792E-01    1.110559141162E-06    2.126485084900E-06
     0.11512    1.727117886031E-01    1.411933971572E-06    2.097868095986E-06
     0.12012    1.526038405095E-01    1.781615006239E-06    2.056995460278E-06
     0.12513    1.338084458277E-01    2.230815052330E-06    1.998620645546E-06
     0.13013    1.164238229463E-01    2.771343735165E-06    1.915258892561E-06
     0.13514    1.005116451119E-01    3.415243877448E-06    1.796240610447E-06
     0.14014    8.609848732021E-02    4.174282686859E-06    1.626373000650E-06
     0.14515    7.317850487346E-02    5.059266943548E-06    1.384056689771E-06
     0.15015    6.171708413354E-02    6.079142976925E-06    1.038653587286E-06
     0.15516    5.165517892085E-02    7.239829344189E-06    5.468450782044E-07
     0.16016    4.291404134105E-02    8.542712018646E-06   -1.523322618056E-07
     0.16517    3.540007105834E-02    9.982710124489E-06   -1.144103396995E-06
     0.17017    2.900953837305E-02    1.154580235340E-05   -2.546472000211E-06
     0.17518    2.363297931071E-02    1.320591068902E-05   -4.520578815039E-06
     0.18018    1.915911042843E-02    1.492111410314E-05   -7.282087507677E-06
     0.18519    1.547816252977E-02    1.662939515992E-05   -1.111124732168E-05
     0.19019    1.248458186972E-02    1.824463768254E-05   -1.635659029009E-05
     0.19520    1.007909148753E-02    1.965453107445E-05   -2.342331463727E-05
     0.20020    8.170141775125E-03    2.072337571765E-05   -3.273342129989E-05
     0.20521    6.674807029763E-03    2.130397008471E-05   -4.464436664709E-05
     0.21021    5.519203245138E-03    2.126224578512E-05   -5.932342444733E-05
     0.21522    4.638512246286E-03    2.051379198181E-05   -7.660254744708E-05
     0.22022    3.976699545817E-03    1.906212467019E-05   -9.587691889833E-05
     0.22523    3.486009451332E-03    1.701939783881E-05   -1.161283128624E-04
     0.23023    3.126312625705E-03    1.459178981297E-05   -1.361117013836E-04
     0.23524    2.864370134090E-03    1.202960013503E-05   -1.546458500402E-04
     0.24024    2.673065505785E-03    9.564537492984E-06   -1.708737363544E-04
     0.24525    2.530643759457E-03    7.363317377632E-06   -1.843811530033E-04
     0.25025    2.419984657905E-03    5.512459436472E-06   -1.951584910047E-04
     0.25526    2.327927334947E-03    4.029492569720E-06   -2.034709698019E-04
     0.26026    2.244655238842E-03    2.886202459785E-06   -2.097162553666E-04
     0.26527    2.163144173355E-03    2.031561666743E-06   -2.143165247045E-04
     0.27027    2.078671993695E-03    1.408442947713E-06   -2.176559350204E-04
     0.27528    1.988385988210E-03    9.633724909697E-07   -2.200544449587E-04
     0.28028    1.890922817550E-03    6.509402440735E-07   -2.217640416007E-04
     0.28529    1.786075724781E-03    4.348875980377E-07   -2.229759697295E-04
     0.29029    1.674504214236E-03    2.874671763381E-07   -2.238317830661E-04
     0.29530    1.557482205588E-03    1.880968194622E-07   -2.244344714381E-04
     0.30030    1.436681546352E-03    1.218732495265E-07   -2.248580832637E-04
     0.30531    1.313988526462E-03    7.821440585366E-08   -2.251554220385E-04
     0.31031    1.191351571462E-03    4.973007903750E-08   -2.253639265303E-04
     0.31532    1.070658551544E-03    3.133387976538E-08   -2.255100356984E-04
     0.32032    9.536421419812E-04    1.957106866818E-08   -2.256123683646E-04
     0.32533    8.418114563025E-04    1.212385433737E-08   -2.256840104806E-04
     0.33033    7.364078202343E-04    7.455272410601E-09   -2.257341464285E-04
     0.33534    6.383821447235E-04    4.557513366318E-09   -2.257692156615E-04
     0.34034    5.483909688150E-04    2.776907026936E-09   -2.257937294596E-04
     0.34535    4.668079432111E-04    1.693975398464E-09   -2.258108460289E-04
     0.35035    3.937473588035E-04    1.042332039632E-09   -2.258227746125E-04
     0.35536    3.290963152860E-04    6.545459919958E-10   -2.258310590100E-04
     0.36036    2.725522756271E-04    4.264479750571E-10   -2.258367762309E-04
     0.36537    2.236630468847E-04    2.938764072711E-10   -2.258406755020E-04
     0.37037    1.818666370018E-04    2.177042030441E-10   -2.258432753771E-04
     0.37538    1.465289229092E-04    1.743078538992E-10   -2.258449314069E-04
     0.38038    1.169775866544E-04    1.495690384213E-10   -2.258458830965E-04
     0.38539    9.253129430465E-05    1.351413171832E-10   -2.258462862449E-04
     0.39039    7.252357356091E-05    1.261518070265E-10   -2.258462349086E-04
     0.39540    5.632126477489E-05    1.198011344442E-10   -2.258457759218E-04
     0.40040    4.333775992125E-05    1.145190423834E-10   -2.258449179787E-04
     0.40541    3.304149756296E-05    1.094596524757E-10   -2.258436366207E-04
     0.41041    2.496034956883E-05    1.042019135841E-10   -2.258418759904E-04
     0.41542    1.868262434625E-05    9.857258040839E-11   -2.258395478580E-04
     0.42042    1.385543323231E-05    9.254157289118E-11   -2.258365281482E-04
     0.42543    1.018113561098E-05    8.615970100163E-11   -2.258326509706E-04
     0.43043    7.412509253574E-06    7.952104691173E-11   -2.258276999543E-04
     0.43544    5.347199612243E-06    7.273971643607E-11   -2.258213964953E-04
     0.44044    3.821897908332E-06    6.593507722562E-11   -2.258133843215E-04
     0.44545    2.706593070598E-06    5.922217124775E-11   -2.258032095546E-04
     0.45045    1.899144493022E-06    5.270545611043E-11   -2.257902951837E-04
     0.45546    1.320336231052E-06    4.647484398110E-11   -2.257739085473E-04
     0.46046    9.095013740516E-07    4.060344196246E-11   -2.257531200304E-04
     0.46547    6.207487682211E-07    3.514661858215E-11   -2.257267507107E-04
     0.47047    4.197824459141E-07    3.014212558190E-11   -2.256933061043E-04
     0.47548    2.812755139357E-07    2.561104991768E-11   -2.256508924680E-04
     0.48048    1.867427909032E-07    2.155939066020E-11   -2.255971113217E-04
     0.48549    1.228478828510E-07    1.798006726014E-11   -2.255289270446E-04
     0.49049    8.007841544360E-08    1.485517834326E-11   -2.254425018497E-04
     0.49550    5.172578623777E-08    1.215834735655E-11   -2.253329929279E-04
     0.50050    3.311136006977E-08    9.857013401639E-12   -2.251943101704E-04
     0.50551    2.100815281463E-08    7.914551260014E-12   -2.250188451441E-04
     0.51051    1.321472390230E-08    6.292132312233E-12   -2.247972171922E-04
     0.51552    8.245524050672E-09    4.950267141992E-12   -2.245181770074E-04
     0.52052    5.108877071826E-09    3.850004205954E-12   -2.241690508263E-04
     0.52553    3.149870930601E-09    2.953810757463E-12   -2.237377009530E-04
     0.53053    1.940600028250E-09    2.226272304869E-12   -2.232182896290E-04
     0.53554    1.204446465791E-09    1.635002137820E-12   -2.226254026178E-04
     0.54054    7.644847461926E-10    1.152619106892E-12   -2.220221762342E-04
     0.54555    5.087477308329E-10    7.607928890160E-13   -2.215560897354E-04
     0.55055    3.671199037567E-10    4.546263077093E-13   -2.214488007850E-04
     0.55556    2.961436891307E-10    2.385919227776E-13   -2.218514056902E-04
     0.56056    2.691421455729E-10    1.091219303606E-13   -2.226548146305E-04
     0.56557    2.698688662254E-10    4.441993610075E-14   -2.235566084421E-04
     0.57057    2.884696725916E-10    1.665979045889E-14   -2.243194486427E-04
     0.57558    3.189418629056E-10    5.935576489641E-15   -2.248708581519E-04
     0.58058    3.575529520091E-10    2.050549079228E-15   -2.252371890905E-04
     0.58559    4.018681071338E-10    6.953813819423E-16   -2.254702200296E-04
     0.59059    4.501605810035E-10    2.332280354892E-16   -2.256152633575E-04
     0.59560    5.010617668712E-10    7.779028398790E-17   -2.257045741213E-04
     0.60060    5.533608490038E-10    2.593998282060E-17   -2.257592769223E-04
     0.60561    6.058980394072E-10    8.703771925997E-18   -2.257926956252E-04
     0.61061    6.575167047455E-10    2.963194865333E-18   -2.258130860429E-04
     0.61562    7.070527832589E-10    1.034244870809E-18   -2.258255201363E-04
     0.62062    7.533477664690E-10    3.742817917639E-19   -2.258331009057E-04
     0.62563    7.952761512164E-10    1.418050975242E-19   -2.258377228628E-04
     0.63063    8.317809431321E-10    0.000000000000E+00   -2.258405415108E-04
     0.63564    8.619123434042E-10    0.000000000000E+00   -2.258422612564E-04
     0.64064    8.848657030052E-10    0.000000000000E+00   -2.258433114028E-04
     0.64565    9.000155070136E-10    0.000000000000E+00   -2.258439535556E-04
     0.65065    9.069427462579E-10    0.000000000000E+00   -2.258443471192E-04
     0.65566    9.054536433220E-10    0.000000000000E+00   -2.258445892200E-04
     0.66066    8.955883624728E-10    0.000000000000E+00   -2.258447390368E-04
     0.66567    8.776190444618E-10    0.000000000000E+00   -2.258448326268E-04
     0.67067    8.520372373183E-10    0.000000000000E+00   -2.258448919589E-04
     0.67568    8.195314987278E-10    0.000000000000E+00   -2.258449304185E-04
     0.68068    7.809565752832E-10    0.000000000000E+00   -2.258449561612E-04
     0.68569    7.372960731320E-10    0.000000000000E+00   -2.258449741558E-04
     0.69069    6.896208872767E-10    0.000000000000E+00   -2.258449874300E-04
     0.69570    6.390458309613E-10    0.000000000000E+00   -2.258449978283E-04
     0.70070    5.866868963632E-10    0.000000000000E+00   -2.258450064746E-04
     0.70571    5.336213938106E-10    0.000000000000E+00   -2.258450140537E-04
     0.71071    4.808528842762E-10    0.000000000000E+00   -2.258450209827E-04
     0.71572    4.292823757315E-10    0.000000000000E+00   -2.258450275159E-04
     0.72072    3.796867419993E-10    0.000000000000E+00   -2.258450338082E-04
     0.72573    3.327047893193E-10    0.000000000000E+00   -2.258450399538E-04
     0.73073    2.888308849482E-10    0.000000000000E+00   -2.258450460103E-04
     0.73574    2.484156115037E-10    0.000000000000E+00   -2.258450520128E-04
     0.74074    2.116725489304E-10    0.000000000000E+00   -2.258450579826E-04
     0.74575    1.786900304868E-10    0.000000000000E+00   -2.258450639326E-04
     0.75075    1.494465763068E-10    0.000000000000E+00   -2.258450698708E-04
     0.75576    1.238286736949E-10    0.000000000000E+00   -2.258450758020E-04
     0.76076    1.016496345240E-10    0.000000000000E+00   -2.258450817293E-04
     0.76577    8.266839785795E-11    0.000000000000E+00   -2.258450876542E-04
     0.77077    6.660733761907E-11    0.000000000000E+00   -2.258450935781E-04
     0.77578    5.316835731677E-11    0.000000000000E+00   -2.258450995014E-04
     0.78078    4.204678451203E-11    0.000000000000E+00   -2.258451054247E-04
     0.78579    3.294279800226E-11    0.000000000000E+00   -2.258451113481E-04
     0.79079    2.557031619330E-11    0.000000000000E+00   -2.258451172718E-04
     0.79580    1.966343614287E-11    0.000000000000E+00   -2.258451231960E-04
     0.80080    1.498063443965E-11    0.000000000000E+00   -2.258451291206E-04
     0.80581    1.130702277907E-11    0.000000000000E+00   -2.258451350458E-04
     0.81081    8.454995564917E-12    0.000000000000E+00   -2.258451409714E-04
     0.81582    6.263619266032E-12    0.000000000000E+00   -2.258451468976E-04
     0.82082    4.597100159993E-12    0.000000000000E+00   -2.258451528243E-04
     0.82583    3.342635566676E-12    0.000000000000E+00   -2.258451587516E-04
     0.83083    2.407910538640E-12    0.000000000000E+00   -2.258451646794E-04
     0.83584    1.718453271782E-12    0.000000000000E+00   -2.258451706078E-04
     0.84084    1.215013157801E-12    0.000000000000E+00   -2.258451765367E-04
     0.84585    8.510790968596E-13    0.000000000000E+00   -2.258451824661E-04
     0.85085    5.906148666619E-13    0.000000000000E+00   -2.258451883962E-04
     0.85586    4.060543378594E-13    0.000000000000E+00   -2.258451943267E-04
     0.86086    2.765725590757E-13    0.000000000000E+00   -2.258452002579E-04
     0.86587    1.866289461448E-13    0.000000000000E+00   -2.258452061895E-04
     0.87087    1.247652760338E-13    0.000000000000E+00   -2.258452121218E-04
     0.87588    8.263292121655E-14    0.000000000000E+00   -2.258452180546E-04
     0.88088    5.421968163177E-14    0.000000000000E+00   -2.258452239879E-04
     0.88589    3.524561900197E-14    0.000000000000E+00   -2.258452299218E-04
     0.89089    2.269851709655E-14    0.000000000000E+00   -2.258452358562E-04
     0.89590    1.448217654503E-14    0.000000000000E+00   -2.258452417912E-04
     0.90090    9.154066128781E-15    0.000000000000E+00   -2.258452477267E-04
     0.90591    5.732419428627E-15    0.000000000000E+00   -2.258452536628E-04
     0.91091    3.556357660769E-15    0.000000000000E+00   -2.258452595995E-04
     0.91592    2.185829666778E-15    0.000000000000E+00   -2.258452655367E-04
     0.92092    1.330976755192E-15    0.000000000000E+00   -2.258452714744E-04
     0.92593    8.029116417060E-16    0.000000000000E+00   -2.258452774127E-04
     0.93093    4.798527965149E-16    0.000000000000E+00   -2.258452833516E-04
     0.93594    2.841130355812E-16    0.000000000000E+00   -2.258452892910E-04
     0.94094    1.666544871967E-16    0.000000000000E+00   -2.258452952309E-04
     0.94595    9.684683942021E-17    0.000000000000E+00   -2.258453011714E-04
     0.95095    5.575660891385E-17    0.000000000000E+00   -2.258453071125E-04
     0.95596    3.180164494366E-17    0.000000000000E+00   -2.258453130541E-04
     0.96096    1.796987362826E-17    0.000000000000E+00   -2.258453189962E-04
     0.96597    1.005964243237E-17    0.000000000000E+00   -2.258453249390E-04
     0.97097    5.579072769659E-18    0.000000000000E+00   -2.258453308822E-04
     0.97598    3.065373150163E-18    0.000000000000E+00   -2.258453368260E-04
     0.98098    1.668577545872E-18    0.000000000000E+00   -2.258453427704E-04
     0.98599    8.998104810458E-19    0.000000000000E+00   -2.258453487153E-04
     0.99099    4.807255359863E-19    0.000000000000E+00   -2.258453546607E-04
     0.99600    2.544396072581E-19    0.000000000000E+00   -2.258453606068E-04
     1.00100    1.334177183147E-19    0.000000000000E+00   -2.258453665533E-04
     1.00601    0.000000000000E+00    0.000000000000E+00    0.000000000000E+00
     1.01101    0.000000000000E+00    0.000000000000E+00    0.000000000000E+00
     1.01602    0.000000000000E+00    0.000000000000E+00    0.000000000000E+00
     1.02102    0.000000000000E+00    0.000000000000E+00    0.000000000000E+00
     1.02603    0.000000000000E+00    0.000000000000E+00    0.000000000000E+00
     1.03103    0.000000000000E+00    0.000000000000E+00    0.000000000000E+00
     1.03604    0.000000000000E+00    0.000000000000E+00    0.000000000000E+00
     1.04104    0.000000000000E+00    0.000000000000E+00    0.000000000000E+00
     1.04605    0.000000000000E+00    0.000000000000E+00    0.000000000000E+00
     1.05105    0.000000000000E+00    0.000000000000E+00    0.000000000000E+00
     1.05606    0.000000000000E+00    0.000000000000E+00    0.000000000000E+00
     1.06106    0.000000000000E+00    0.000000000000E+00    0.000000000000E+00
     1.06607    0.000000000000E+00    0.000000000000E+00    0.000000000000E+00
     1.07107    0.000000000000E+00    0.000000000000E+00    0.000000000000E+00
     1.07608    0.000000000000E+00    0.000000000000E+00    0.000000000000E+00
     1.08108    0.000000000000E+00    0.000000000000E+00    0.000000000000E+00
     1.08609    0.000000000000E+00    0.000000000000E+00    0.000000000000E+00
     1.09109    0.000000000000E+00    0.000000000000E+00    0.000000000000E+00
     1.09610    0.000000000000E+00    0.000000000000E+00    0.000000000000E+00
     1.10110    0.000000000000E+00    0.000000000000E+00    0.000000000000E+00
     1.10611    0.000000000000E+00    0.000000000000E+00    0.000000000000E+00
     1.11111    0.000000000000E+00    0.000000000000E+00    0.000000000000E+00
     1.11612    0.000000000000E+00    0.000000000000E+00    0.000000000000E+00
     1.12112    0.000000000000E+00    0.000000000000E+00    0.000000000000E+00
     1.12613    0.000000000000E+00    0.000000000000E+00    0.000000000000E+00
     1.13113    0.000000000000E+00    0.000000000000E+00    0.000000000000E+00
     1.13614    0.000000000000E+00    0.000000000000E+00    0.000000000000E+00
     1.14114    0.000000000000E+00    0.000000000000E+00    0.000000000000E+00
     1.14615    0.000000000000E+00    0.000000000000E+00    0.000000000000E+00
     1.15115    0.000000000000E+00    0.000000000000E+00    0.000000000000E+00
     1.15616    0.000000000000E+00    0.000000000000E+00    0.000000000000E+00
     1.16116    0.000000000000E+00    0.000000000000E+00    0.000000000000E+00
     1.16617    0.000000000000E+00    0.000000000000E+00    0.000000000000E+00
     1.17117    0.000000000000E+00    0.000000000000E+00    0.000000000000E+00
     1.17618    0.000000000000E+00    0.000000000000E+00    0.000000000000E+00
     1.18118    0.000000000000E+00    0.000000000000E+00    0.000000000000E+00
     1.18619    0.000000000000E+00    0.000000000000E+00    0.000000000000E+00
     1.19119    0.000000000000E+00    0.000000000000E+00    0.000000000000E+00
     1.19620    0.000000000000E+00    0.000000000000E+00    0.000000000000E+00
     1.20120    0.000000000000E+00    0.000000000000E+00    0.000000000000E+00
     1.20621    0.000000000000E+00    0.000000000000E+00    0.000000000000E+00
     1.21121    0.000000000000E+00    0.000000000000E+00    0.000000000000E+00
     1.21622    0.000000000000E+00    0.000000000000E+00    0.000000000000E+00
     1.22122    0.000000000000E+00    0.000000000000E+00    0.000000000000E+00
     1.22623    0.000000000000E+00    0.000000000000E+00    0.000000000000E+00
     1.23123    0.000000000000E+00    0.000000000000E+00    0.000000000000E+00
     1.23624    0.000000000000E+00    0.000000000000E+00    0.000000000000E+00
     1.24124    0.000000000000E+00    0.000000000000E+00    0.000000000000E+00
     1.24625    0.000000000000E+00    0.000000000000E+00    0.000000000000E+00
     1.25125    0.000000000000E+00    0.000000000000E+00    0.000000000000E+00
